tlist,tr,mag,coh,energy,overlap_target,overlap_instant
0.0,1.0,0.0,0.0,0.25,0.5,0.5
0.01,0.9999998409073848,4.9606985186301245e-12,4.737113133442553e-10,0.2513430763755357,0.49999992045121205,0.49999992024123474
0.02,0.9999996721256716,1.6977635963755233e-10,1.2944976922842947e-09,0.2553708879438906,0.4999998359779476,0.4999998355182643
0.03,0.999999459742235,1.3335081372467528e-09,-1.8062882948462765e-09,0.2620800926099342,0.4999997292043635,0.4999997309771326
0.04,0.9999992176492049,5.891910737076955e-09,-1.758887491527e-08,0.27146598940657596,0.49999960587864706,0.49999961798865966
0.05,0.9999989601661574,1.8935408740983206e-08,-6.017860504294007e-08,0.28352277806126036,0.49999947061537436,0.49999951105467005
0.06,0.9999987011473226,4.958803223598096e-08,-1.5028811698708614e-07,0.2982438070076539,0.4999993257796452,0.4999994281562007
0.07,0.9999984532022066,1.1244018754963392e-07,-3.1635406404320596e-07,0.31562177608588804,0.4999991703810095,0.4999993911434474
0.08,0.9999982270654171,2.2891344925168866e-07,-5.950299239136496e-07,0.33564887758979556,0.49999899907598394,0.4999994259047378
0.09,0.9999980311390755,4.283442447405861e-07,-1.030473817479924e-06,0.35831686615098335,0.49999880139741537,0.49999956204697016
0.1,0.9999978712185988,7.485415214336655e-07,-1.6719890310087998e-06,0.3836170549664776,0.4999985613385387,0.49999983188424924
0.11,0.9999977504005806,1.2355749299808316e-06,-2.569795374936306e-06,0.41154024251312726,0.4999982574128253,0.5000002686520554
0.12,0.9999976691606838,1.9425933303618415e-06,-3.7689971603928023e-06,0.4420765796600135,0.49999786328367674,0.5000009040149902
0.13,0.999997625580419,2.9275602865808104e-06,-5.302124847300893e-06,0.4752153916088077,0.49999734901006626,0.5000017650827354
0.14,0.999997615694771,4.249917813281545e-06,-7.180915875526423e-06,0.5109449721063877,0.4999966828884788,0.5000028712583606
0.15,0.9999976339281065,5.96633912158806e-06,-9.388222750589537e-06,0.5492523687636109,0.4999958337944925,0.500004231293287
0.16,0.999997673583657,8.125887224097461e-06,-1.1871058842726336e-05,0.5901231780909972,0.49999477384821644,0.5000058409090086
0.17,0.9999977273520206,1.076503762753589e-05,-1.4535793217620313e-05,0.6335413671598051,0.49999348115719655,0.5000076812791014
0.18,0.9999977878063667,1.3903128535441844e-05,-1.7246379097578992e-05,0.6794891358515253,0.49999194233891564,0.5000097185690842
0.19,0.9999978478559836,1.7538852316589804e-05,-1.9826255978499688e-05,0.7279468297837172,0.4999901545018335,0.5000119046308207
0.2,0.9999979011350879,2.164838435869676e-05,-2.206422710909308e-05,0.7788929095577104,0.4999881263753646,0.5000141788605418
0.21,0.9999979423099763,2.6185654152355298e-05,-2.3724217449985507e-05,0.8323039773449743,0.49998587832791197,0.5000164711627129
0.22,0.9999979672941635,3.1085101621586286e-05,-2.4558404987709287e-05,0.8881548573839205,0.49998344109627096,0.5000187059134942
0.23,0.999997973367712,3.6267041120252586e-05,-2.4322835221408544e-05,0.9464187230296571,0.4999808531632959,0.5000208067785065
0.24,0.9999979592030832,4.164549569468656e-05,-2.2794316796913395e-05,1.0070672598575021,0.49997815685369423,0.5000227021993597
0.25,0.9999979248052279,4.713809069067931e-05,-1.978719025759955e-05,1.0700708521613624,0.4999753933572686,0.5000243313135824
0.26,0.9999978713780213,5.267733718467005e-05,-1.516848526538678e-05,1.1353987791175906,0.49997259702041835,0.5000256500102193
0.27,0.999997801132375,5.822242092878849e-05,-8.870044522897811e-06,1.203019406920344,0.4999697893557231,0.5000266367522624
0.28,0.9999977170533251,6.377046728267555e-05,-8.963907858753292e-07,1.2729003642658587,0.4999669732930212,0.5000272977279803
0.29,0.9999976226441483,6.936619689074108e-05,8.672571059132645e-06,1.345008690524042,0.49996412822362873,0.5000276708423006
0.3,0.9999975216651189,7.510893223217074e-05,1.9684521253904945e-05,1.4193109485791866,0.49996120636644337,0.5000278280450643
0.31,0.9999974178830862,8.115606351571936e-05,3.192341218091511e-05,1.4957732973987814,0.4999581309097852,0.5000278755317427
0.32,0.9999973148457793,8.772232527604062e-05,4.512346313271678e-05,1.5743615226323817,0.4999547962602516,0.5000279514540269
0.33,0.9999972156918582,9.507455439444756e-05,5.898762186340864e-05,1.655041026686277,0.49995107056873184,0.5000282209425401
0.34,0.9999971230044842,0.0001035219698339307,7.320929401054746e-05,1.737776782523738,0.49994680051732515,0.5000288684603764
0.35000000000000003,0.9999970387127841,0.00011340240218404851,8.749588435437127e-05,1.8225332577071087,0.49994181815530003,0.5000300877526658
0.36,0.9999969640422672,0.00012506527238614895,0.00010159255688978343,1.9092743167862822,0.4999359493849405,0.5000320699056662
0.37,0.9999968995122201,0.0001388524395583013,0.0001153046112598021,1.9979631109734202,0.4999290235363309,0.5000349902489508
0.38,0.9999968449754817,0.00015507827727961887,0.0001285169866772055,2.088561964120214,0.49992088334910106,0.5000389949988563
0.39,0.999996799693931,0.00017401047228232658,0.00014120962564142668,2.181032263391438,0.4999113946108243,0.5000441886301251
0.4,0.9999967624415536,0.00019585305454872248,0.00015346773453018764,2.275334361823568,0.4999004546935024,0.500050622964316
0.41000000000000003,0.9999967316261358,0.00022073305891173733,0.0001654863369121545,2.371427498329651,0.499887999283612,0.5000582888767106
0.42,0.9999967054204133,0.00024869199188359836,0.00017756889642758534,2.4692697388466356,0.49987400671426485,0.5000671113560786
0.43,0.9999966818938735,0.00027968295020491807,0.00019012015880993084,2.5688179404111366,0.4998584994718343,0.5000769484193996
0.44,0.9999966591372612,0.0003135738348786221,0.00020363370081581247,2.670027738173013,0.4998415426511913,0.5000875941076169
0.45,0.9999966353730696,0.00035015665797227813,0.00021867495773269765,2.7728535538619514,0.49982323935754863,0.5000987854926942
0.46,0.9999966090468166,0.0003891624845246966,0.000235860718724991,2.8772486231149577,0.499803723281146,0.5001102133350491
0.47000000000000003,0.9999965788955796,0.0004302811243190874,0.0002558362264267534,2.9831650384034494,0.49978314888563025,0.5001215357663638
0.48,0.9999965439919631,0.0004731843212926745,0.0002792510967183626,3.090553804062761,0.4997616798353352,0.5001323941545267
0.49,0.999996503763332,0.0005175509099700215,0.00030673529450743866,3.199364900067194,0.499739476426681,0.5001424301489586
0.5,0.9999964579876301,0.0005630922391028359,0.00033887637229656646,3.3095473516102505,0.4997166828742637,0.5001513028140478
0.51,0.999996406768372,0.000609576114504462,0.0003761991112512761,3.421049302115049,0.49969341532693373,0.5001587047387974
0.52,0.9999963504923839,0.0006568475883269032,0.0004191486080788063,3.5338180878771075,0.49966975145202847,0.5001643760600292
0.53,0.9999962897745533,0.0007048451141157819,0.0004680777300677424,3.6478003130049745,0.4996457223302188,0.5001681154487729
0.54,0.9999962253942045,0.0007536108811629361,0.0005232397151978283,3.762941923577116,0.4996213072565208,0.5001697872762496
0.55,0.9999961582277626,0.0008032945167333883,0.0005847865200402772,3.8791882799247723,0.49959643185551456,0.500169324387046
0.56,0.9999960891821618,0.0008541497748873472,0.0006527733081216368,3.996484225683485,0.4995709697036372,0.5001667261519808
0.5700000000000001,0.9999960191329593,0.0009065242876054591,0.0007271692180430846,4.114774151790183,0.4995447474226769,0.500162051741011
0.58,0.9999959488704613,0.0009608429090575688,0.0008078742491910882,4.234002053048232,0.49951755298070183,0.5001554088366323
0.59,0.9999958790563599,0.001017585609843108,0.0008947417545633426,4.354111574384689,0.4994891467232584,0.5001469382897963
0.6,0.9999958101925183,0.001077261250168271,0.0009876056450166767,4.4750460436420685,0.499459274471175,0.5001367954918374
0.61,0.9999957426026087,0.0011403788583638774,0.0010863110075354158,4.5967484878285125,0.49942768187212244,0.5001251294845441
0.62,0.9999956764264823,0.0012074182471654704,0.0011907464529939266,4.719161630304988,0.49939412908965847,0.5001120610419628
0.63,0.9999956116263395,0.0012788019026325759,0.0013008761764111711,4.8422278674628565,0.4993584048618535,0.5000976611156869
0.64,0.9999955480031326,0.0013548700719585027,0.0014167694803227174,4.965889225007082,0.4993203389655871,0.5000819311233511
0.65,0.9999954852211247,0.0014358608537480277,0.0015386254251535257,5.090087295890873,0.49927981218368833,0.5000647865611633
0.66,0.9999954228382064,0.0015218968594379323,0.0016667903684608712,5.214763164047777,0.49923676298938424,0.5000460453213202
0.67,0.9999953603394277,0.0016129796741987112,0.0018017664634163916,5.33985732007608,0.4991911903326145,0.5000254218849093
0.68,0.999995297171236,0.001708992911953533,0.0019442097121008329,5.465309576659013,0.4991431521296413,0.5000025282386716
0.6900000000000001,0.9999952327741104,0.001809714149917152,0.00209491689306547,5.5910589924714635,0.4990927593120966,0.4999768819383304
0.7000000000000001,0.999995166611618,0.0019148354671114642,0.002254801560909973,5.717043813405468,0.4990401655722533,0.49994792123222787
0.71,0.9999950981943593,0.002023991728241692,0.0024248602791659087,5.843201439011661,0.49898555323305877,0.4999150265989977
0.72,0.9999950270977717,0.0021367951840244315,0.0026061312074395927,5.969468420100461,0.4989291159568736,0.49987754748517166
0.73,0.9999949529733022,0.0022528744400184264,0.0027996480189229687,6.095780490615554,0.4988710392666419,0.49983483250395494
0.74,0.9999948755529693,0.0023719154182302304,0.0030063927740375156,6.2220726334649505,0.49881148006736953,0.4997862609292278
0.75,0.9999947946478035,0.002493701637506507,0.0032272517314569866,6.348279176365552,0.4987505465051485,0.49973127304064713
0.76,0.9999947101410241,0.002618151002884317,0.0034629780752349986,6.474333910388109,0.4986882795690699,0.49966939678867606
0.77,0.9999946219771025,0.00274534634437984,0.003714165147885055,6.600170221246554,0.49862463781636135,0.4996002683790119
0.78,0.9999945301479896,0.002875557192895728,0.00398123301807726,6.725721221860398,0.49855948647754694,0.4995236447298045
0.79,0.9999944346778415,0.003009250720387213,0.004264430136481049,6.850919874599791,0.49849259197872714,0.4994394063141979
0.8,0.9999943356074856,0.0031470903814371787,0.0045638505428999675,6.975699092985067,0.49842362261302425,0.49934754962298394
0.81,0.9999942329797111,0.0032899215359485923,0.004879465711491635,7.099991815327741,0.49835215572188124,0.4992481693046571
0.8200000000000001,0.9999941268262369,0.0034387441557481857,0.00521116880370917,7.223731046531569,0.49827769133524435,0.49914143088532054
0.8300000000000001,0.999994017156943,0.0035946735599743374,0.005558827983828781,7.3468498685130506,0.49819967179848434,0.4990275357552501
0.84,0.9999939039516902,0.003758890920014024,0.005922344662102974,7.469281423841908,0.4981175065158381,0.49890668075309474
0.85,0.9999937871548007,0.003932585962361457,0.006301712150908362,7.590958880625568,0.4980306005962196,0.49877901511770545
0.86,0.9999936666720834,0.004116894824848172,0.006697070285417256,7.711815388839602,0.49793838592361767,0.4986445977694459
0.87,0.999993542370138,0.004312836351341609,0.00710875205292821,7.831784038895134,0.4978403530093982,0.4985033578142662
0.88,0.9999934140775886,0.004521250224660989,0.0075373191218949444,7.950797832139709,0.4977360819264638,0.4983550608521684
0.89,0.9999932815878748,0.004742740239877974,0.007983584248112754,8.068789670397043,0.4976252706739984,0.4981992831621128
0.9,0.9999931446632366,0.00497762573205085,0.008448619720709002,8.185692368007857,0.4975077594655929,0.4980353951942831
0.91,0.9999930030395681,0.005225903730169457,0.008933752148605974,8.301438685779152,0.4973835496546993,0.4978625551053137
0.92,0.999992856431869,0.005487223857680579,0.009440544849510606,8.41596138250957,0.4972528162870942,0.4976797123994668
0.93,0.9999927045400618,0.00576087738603781,0.009970769794203551,8.529193277022175,0.497115913577012,0.4974856211537528
0.9400000000000001,0.9999925470549653,0.006045801212845703,0.010526371433421977,8.641067312423196,0.4969733729210598,0.49727886185151454
0.9500000000000001,0.9999923836642285,0.006340596911677987,0.01110942480076931,8.751516614865047,0.49682589337627525,0.49705787054471273
0.96,0.9999922140580162,0.00664356440494035,0.011722090099634767,8.860474541344308,0.4966743248265379,0.49682097390101937
0.97,0.9999920379342194,0.006952749249986456,0.012366565637957735,8.96787471460269,0.4965196443421165,0.4965664286367341
0.98,0.9999918550029592,0.007266001998400995,0.013045040581630162,9.073651047351277,0.4963629265022791,0.49629246384588066
0.99,0.999991664990157,0.007581047581255718,0.013759648660099866,9.177737761992297,0.4962053087044506,0.49599732476261027
1.0,0.9999914676399753,0.007895562183985572,0.014512423755169972,9.28006941496411,0.49604795272799485,0.4956793165001546
1.01,0.9999912627160095,0.008207254606827086,0.015305258273551272,9.380580936148675,0.49589200405459116,0.4953368462751808
1.02,0.9999910500012001,0.008513948677013217,0.016139865334256466,9.479207693118903,0.49573855066209344,0.4949684625551012
1.03,0.9999908292965541,0.008813662918136678,0.017017746036223247,9.575885587406605,0.49558858318920873,0.49457288948487255
1.04,0.9999906004188819,0.009104683433884764,0.0179401633184292,9.670551185860312,0.4954429584924986,0.494149054904465
1.05,0.9999903631978619,0.009385625878425785,0.018908124078346154,9.763141885264801,0.49530236865971805,0.49369611031239924
1.06,0.9999901174728154,0.009655482514044023,0.019922371177155854,9.853596103608506,0.4951673174793857,0.4932134413145774
1.07,0.9999898630896026,0.009913650738379576,0.020983386663983528,9.94185348760131,0.4950381061756115,0.4927006674548763
1.08,0.9999895998980176,0.010159940120499589,0.02209140697520274,10.027855123964361,0.494914829888759,0.49215763086230835
1.09,0.9999893277499894,0.010394555913870562,0.023246450041391996,10.111543742003741,0.4947973859180594,0.49158437384523845
1.1,0.9999890464987755,0.01061805818385747,0.02444835324774712,10.192863896994032,0.49468549415745905,0.4909811063616837
1.11,0.9999887559992028,0.010831297039127441,0.025696820165891754,10.271762127486397,0.49457872948003767,0.4903481651173024
1.12,0.9999884561088681,0.011035325909080962,0.026991473045957403,10.348187084056747,0.4944765650998936,0.48968596679770937
1.1300000000000001,0.9999881466901068,0.011231296266761337,0.028331907360853233,10.422089631312753,0.49437842521167275,0.48899495853867125
1.1400000000000001,0.9999878276124563,0.011420338556227039,0.029717744333494212,10.49342292832168,0.49428374452811463,0.48827556910129444
1.1500000000000001,0.9999874987553218,0.011603435245940319,0.031148677408963304,10.562142494375845,0.49419203175469073,0.4875281643008032
1.16,0.9999871600105746,0.011781292807415134,0.03262450905799504,10.62820626692146,0.49410293360157975,0.4867530100217218
1.17,0.9999868112848747,0.011954219940498445,0.03414517506265981,10.69157465670397,0.49401629567218813,0.4859502456583956
1.18,0.9999864525015996,0.01212201948310726,0.03571075444390449,10.75221060227524,0.4939322165092462,0.48511987009695734
1.19,0.9999860836023455,0.012283901126017793,0.03732146432338908,10.810079622760908,0.4938510912381639,0.48426174147324036
1.2,0.9999857045480564,0.012438421296308344,0.03897764014512883,10.86514986506166,0.493773641625874,0.4833755909808286
1.21,0.9999853153198666,0.012583455392051579,0.04067970270813229,10.917392140181352,0.4937009299639075,0.4824610500433967
1.22,0.999984915919776,0.01271620598297668,0.04242811430195757,10.96677994355326,0.49363435496839964,0.4815176892747913
1.23,0.99998450637124,0.01283324869647684,0.04422332685173308,11.013289456080233,0.4935756288373816,0.4805450668828135
1.24,0.9999840867197204,0.012930615367927722,0.046065725360899715,11.056899525714758,0.49352673567589633,0.4795427835659475
1.25,0.9999836570331833,0.013003911754801256,0.04795557010738145,11.097591633063642,0.49348987263919103,0.4785105405296485
1.26,0.9999832174024907,0.013048464823914363,0.04989294103340064,11.13534984784458,0.4934673762892882,0.47744819702340063
1.27,0.9999827679415834,0.013059492467436595,0.05187768760172838,11.170160785235128,0.49346163773707336,0.4763558237788038
1.28,0.9999823087873637,0.013032286644222402,0.05390938709282429,11.202013571668813,0.49347501107157066,0.47523374891639125
1.29,0.9999818400992063,0.012962399536958658,0.055987313895232524,11.230899828248495,0.49350972028112383,0.4740825932855405
1.3,0.9999813620580662,0.012845821506711708,0.058110421791732696,11.256813676879233,0.4935677702756773,0.4729032928027549
1.31,0.9999808748652133,0.012679139529005123,0.06027734055912837,11.279751770048446,0.49365086766810407,0.47169710614335736
1.32,0.9999803787406785,0.012459665478696369,0.062486387381586406,11.299713340702704,0.49376035663099105,0.4704656070892801
1.33,0.9999798739215341,0.01218552510626314,0.0647355926468195,11.316700264733507,0.4938971744076355,0.46921066189071414
1.34,0.9999793606601456,0.011855700762044008,0.06702273869837908,11.330717125892466,0.4940618299490508,0.4679343930913057
1.35,0.9999788392225188,0.011470023757819303,0.06934540913067616,11.341771271925461,0.4942544077323498,0.46663913230783544
1.36,0.9999783098868384,0.011029115526741073,0.07170104533214494,11.3498728514023,0.49447459718004866,0.465327365349231
1.37,0.9999777729422327,0.010534280225337533,0.07408700631081666,11.355034822836593,0.49472174635844757,0.4640016737116346
1.3800000000000001,0.9999772286877536,0.00998735485769775,0.0765006274717469,11.357272930702495,0.49499493691502794,0.46266467681620815
1.3900000000000001,0.9999766774315089,0.009390526126607845,0.07893927402755013,11.356605646216618,0.4952930756524505,0.4613189793119615
1.4000000000000001,0.9999761194898613,0.008746125778576308,0.08140038514144846,11.353054073672709,0.49561499685564253,0.4599671273314945
1.41,0.9999755551865954,0.008056417995205623,0.08388150570726925,11.346641825280432,0.4959595685956949,0.4586115767896115
1.42,0.9999749848519767,0.0073233932332935625,0.08638030379348355,11.337394868711506,0.49632579580934155,0.4572546757208189
1.43,0.9999744088216538,0.006548582740781239,0.08889457310726312,11.325341351994544,0.49671291304043624,0.455898661363893
1.44,0.9999738274353965,0.005732906763511125,0.09142222123057149,11.310511410317071,0.4971204603359427,0.4545456713454119
1.45,0.9999732410357038,0.004876567277204813,0.0939612456954081,11.292936959064962,0.49754833687924954,0.45319776702327924
1.46,0.9999726499663373,0.003978993074742698,0.0965097010620046,11.272651477396135,0.4979968284457973,0.45185696595301006
1.47,0.9999720545708533,0.003038841421722338,0.09906566093231273,11.249689787007728,0.4984666065745655,0.4505252796398663
1.48,0.9999714551912059,0.002054056525490622,0.10162717920187625,11.224087831522258,0.49895869933285764,0.4492047523126248
1.49,0.9999708521664699,0.0010219810379640815,0.10419225480238507,11.195882462903597,0.4994744355642529,0.4478974964345446
1.5,0.9999702458317157,-6.048696678068177e-05,0.10675880373631555,11.16511124219885,0.5000153663992482,0.4466057210476999
1.51,0.9999696365170354,-0.001196702345371392,0.10932464141435808,11.131812262323985,0.5005831694312034,0.4453317497835553
1.52,0.9999690245467143,-0.002390059837616254,0.11188747726481742,11.096024000265187,0.5011795421921653,0.4440780263887528
1.53,0.9999684102385116,-0.0036437743796498,0.114444922397589,11.057785204796389,0.5018060923090807,0.44284710681082556
1.54,0.9999677939030394,-0.004960669944784224,0.11699450988438256,11.01713482364941,0.5024642319239118,0.4416416381516467
1.55,0.9999671758432225,-0.006342991371142137,0.11953372606708546,10.974111971243072,0.5031550836071823,0.4404643260125875
1.56,0.9999665563538441,-0.0077922518740510816,0.1220600503199511,10.928755934951981,0.5038794041139476,0.4393178928183361
1.57,0.9999659357212007,-0.009309126271260737,0.12457099994266396,10.881106214912341,0.5046375309962308,0.43820503052630505
1.58,0.9999653142228961,-0.010893396585598347,0.12706417640258327,10.831202589934309,0.5054293554042473,0.43712835163893904
