tlist,tr,mag,coh,energy,overlap_target,overlap_instant
0.0,1.0,0.0,0.0,0.25,0.5,0.5
0.01,0.9999998409085202,1.1234624341938115e-11,7.154094347687118e-10,0.2530218334617083,0.49999992044864283,0.4999999201155053
0.02,0.9999996721400012,3.930995529088932e-10,1.838633667392639e-09,0.26208239115924326,0.4999998358734508,0.4999998352600929
0.03,0.9999994597951725,3.1747298678830305e-09,-4.319517690825469e-09,0.2771691963725789,0.4999997283102213,0.49999973246220547
0.04,0.9999992177739332,1.4504028478246056e-08,-3.5925701691664745e-08,0.29826339670635915,0.49999960163495233,0.4999996282540141
0.05,0.9999989603917314,4.838619022118351e-08,-1.268376678693876e-07,0.3253403746002248,0.4999994560027706,0.4999995480477464
0.06,0.9999987014820713,1.3181491409497426e-07,-3.328989234320651e-07,0.35837032086466497,0.4999992848335786,0.49999952954774096
0.07,0.9999984536149293,3.111045036585658e-07,-7.374992553228321e-07,0.3973187092216574,0.49999907125521287,0.49999962614428806
0.08,0.9999982274673505,6.588351341707543e-07,-1.4542528350924853e-06,0.44214663460626175,0.49999878431610817,0.4999999092388604
0.09,0.9999980313696752,1.2804240558383917e-06,-2.6247677067219315e-06,0.49281099354248514,0.4999983754728097,0.5000004685131232
0.1,0.999997871037837,2.3190339670242643e-06,-4.410038656369648e-06,0.5492645009701659,0.499997776001935,0.500001409492197
0.11,0.9999977494897595,3.957413200583737e-06,-6.974899718319378e-06,0.6114555531827133,0.49999689603827946,0.5000028482799966
0.12,0.9999976671328041,6.41538743134662e-06,-1.0466079853175399e-05,0.6793279599063982,0.49999562587268637,0.5000049038887214
0.13,0.9999976220000317,9.942105376137267e-06,-1.4985542708701299e-05,0.7528205790974156,0.49999383994732777,0.5000076889554133
0.14,0.9999976101061179,1.4802753208031927e-05,-2.0561781717545186e-05,0.8318668951061481,0.49999140367645495,0.5000112997290996
0.15,0.9999976258893273,2.126022506637737e-05,-2.7122428831555114e-05,0.9163945841073585,0.4999881828321305,0.5000158060612587
0.16,0.9999976627040266,2.9553069488263972e-05,-3.447180479956194e-05,1.0063251100749049,0.49998405481726915,0.500021241897193
0.17,0.9999977133286828,3.987180595893536e-05,-4.227683405560472e-05,1.1015733903417326,0.4999789207613619,0.5000275966254625
0.18,0.9999977704568654,5.2336303475231105e-05,-5.006407520209591e-05,1.2020475624522988,0.4999727170766951,0.5000348077024009
0.19,0.9999978271431136,6.697723170251413e-05,-5.722954870910599e-05,1.307648874332058,0.49996542495570556,0.5000427552200567
0.2,0.9999978771811484,8.372456372668369e-05,-6.306169996019646e-05,1.4182717086787004,0.49995707630871083,0.5000512594208018
0.21,0.9999979153983681,0.00010240569810060496,-6.677637822376539e-05,1.5338037409258283,0.49994775485013376,0.5000600824188314
0.22,0.9999979378573443,0.0001227549948492057,-6.75613166948152e-05,1.654126219156167,0.49993759143124755,0.5000689354045512
0.23,0.9999979419616862,0.00014443544986481038,-6.46264350733543e-05,1.7791143448908875,0.4999267532559107,0.5000774922683264
0.24,0.9999979264697711,0.00016707196943843705,-5.7255495708602983e-05,1.9086377265454395,0.49991542725016636,0.5000854098637664
0.25,0.9999978914251069,0.00019029438467271786,-4.485432261346987e-05,2.042560873090508,0.4999037985202171,0.5000923541300538
0.26,0.9999978380162511,0.0002137871103668476,-2.6990977238034635e-05,2.1807436943855416,0.49989202545294215,0.5000980301972241
0.27,0.9999977683821539,0.00023734134695763132,-3.4239511614340255e-06,2.32304197675255,0.49988021351759815,0.5001022136399286
0.28,0.9999976853804191,0.0002609050686706582,2.588449927718171e-05,2.4693078073102166,0.4998683901558742,0.5001047794290974
0.29,0.9999975923363713,0.00028462582265037506,6.077141809187418e-05,2.619389927788489,0.49985648325686044,0.5001057249807986
0.3,0.9999974927900601,0.00030888162359493654,0.00010089271401602645,2.773134007154937,0.4998443055832326,0.5001051840401154
0.31,0.9999973902566273,0.0003342959571696613,0.0001457579398899732,2.930382831419833,0.4998315471497288,0.5001034288989623
0.32,0.9999972880129977,0.0003617340449479367,0.00019477782982653058,3.0909764174113334,0.4998177769840249,0.5001008595064091
0.33,0.9999971889208763,0.00039227897291094216,0.00024732129112080455,3.2547520641578567,0.4998024549739827,0.5000979792387805
0.34,0.9999970952928107,0.0004271879130061107,0.00030277809420637194,3.4215443599988737,0.4997849536899023,0.5000953583066431
0.35000000000000003,0.9999970088047787,0.0004678303252230731,0.00036062344740598435,3.5911851651755935,0.4997645892397778,0.5000935868591742
0.36,0.9999969304556477,0.0005156115689131657,0.0004204809295450707,3.7635035883090016,0.49974065944336726,0.5000932207081525
0.37,0.9999968605710574,0.0005718866456368432,0.0004821807793262436,3.9383259711450838,0.49971248696271026,0.5000947231776728
0.38,0.9999967988469189,0.000637869739659902,0.0005458111716946583,4.115475889929151,0.4996794645536295,0.5000984068753871
0.39,0.999996744425918,0.000714545752131035,0.000611760708096974,4.294774174790878,0.4996410993368935,0.5001043791964065
0.4,0.99999669599914,0.0008025901174535943,0.0006807507901805008,4.476038941819599,0.49959705294084317,0.5001124951583175
0.41000000000000003,0.9999966519242642,0.0009023028604094319,0.0007538567615462103,4.659085627366673,0.4995471745319274,0.5001223207852947
0.42,0.9999966103516172,0.0010135621461414557,0.0008325166804998578,4.843727011650421,0.4994915241027379,0.5001331097698576
0.43,0.9999965693497324,0.0011358015582662584,0.000918526391590531,5.0297732197183915,0.4994303838957331,0.5001437955861627
0.44,0.9999965270228179,0.0012680140873790324,0.0010140193254062205,5.217031692461387,0.4993642564677195,0.5001530006273961
0.45,0.9999964816136688,0.0014087843942333644,0.0011214293524035945,5.4053071282447895,0.49929384860971776,0.5001590632817725
0.46,0.9999964315869319,0.001556349389595535,0.0012434352404137703,5.594401405725942,0.4992200410986682,0.5001600831128605
0.47000000000000003,0.9999963756892216,0.0017086855936758183,0.0013828859839728424,5.784113508891755,0.4991438450477729,0.5001539834252733
0.48,0.9999963129842535,0.0018636201397031482,0.0015427075847799978,5.974239484248424,0.49906634642227515,0.5001385894390598
0.49,0.9999962428628653,0.0020189607043374913,0.0017257937577539145,6.164572465355963,0.4989886410792639,0.5001117190583195
0.5,0.9999961650294205,0.002172638127661275,0.001934885377487529,6.354902799791365,0.49891176345087956,0.5000712818446478
0.51,0.999996079467562,0.002322854093690596,0.00217244599387535,6.545018307135373,0.4988366126869357,0.500015380399853
0.52,0.9999959863895043,0.0024682250739243017,0.00244054305221355,6.734704683730706,0.49876388065779,0.49994240709420246
0.53,0.9999958861739513,0.0026079129160422876,0.0027407461104112353,6.923746051981121,0.49869398662895453,0.4998511281643582
0.54,0.9999957792982259,0.002741732133084762,0.003074053921773837,7.111925631243767,0.49862702358257055,0.4997407468860439
0.55,0.9999956662702602,0.002870224262997767,0.003440861404725361,7.299026487205175,0.4985627210036312,0.4996109380135966
0.56,0.9999955475657025,0.0029946907471360973,0.0038409750796225377,7.484832300719267,0.4985004284092832,0.4994618471133324
0.5700000000000001,0.9999954235745842,0.003117177685930117,0.004273681577825783,7.669128088866723,0.498439122944327,0.49929405082467326
0.58,0.9999952945608046,0.003240408551966223,0.004737868639922503,7.851700812943354,0.49837744300441916,0.49910847733861013
0.59,0.9999951606362971,0.003367664351304811,0.005232192184131837,8.03233982107755,0.4983137481424961,0.4989062902067043
0.6,0.99999502175021,0.0035026145888840676,0.005755277290983322,8.21083709609069,0.498246203580663,0.498688742568132
0.61,0.9999948776920067,0.0036491063835804027,0.006305936143068158,8.38698730888519,0.49817288565421314,0.49845701250274577
0.62,0.9999947281061692,0.0038109228024398867,0.006883382851333967,8.560587709240188,0.49809190265186465,0.49821203296714034
0.63,0.9999945725153568,0.003991524541157365,0.00748742427157798,8.731437913698658,0.49800152398709974,0.49795433120409177
0.64,0.9999944103484666,0.004193791117478585,0.008118607635328796,8.899339668718307,0.497900309615494,0.4976838923462023
0.65,0.9999942409701466,0.0044197785192091055,0.008778309974277502,9.064096672275344,0.4977872312254687,0.4974000600947938
0.66,0.9999940637088296,0.0046705096587657535,0.009468760402944757,9.225514526889715,0.49766177702503195,0.49710148402504084
0.67,0.9999938778812045,0.004945812095180024,0.010192993511711435,9.383400872822092,0.4975240328930122,0.4967861186583469
0.68,0.9999936828120334,0.005244214506763378,0.010954739389066284,9.537565716241874,0.497374734152635,0.4964512745317936
0.6900000000000001,0.9999934778492277,0.005562909658857418,0.011758262096247881,9.68782193010532,0.4972152840951851,0.4960937167326889
0.7000000000000001,0.9999932623748545,0.005897787486843442,0.012608162885053936,9.833985873028007,0.49704773744400554,0.4957098023622556
0.71,0.9999930358132485,0.006243537763605034,0.013509166533595567,9.97587805074513,0.4968747490248217,0.495295645605882
0.72,0.9999927976374718,0.00659381792644137,0.014465908754847061,10.11332374075797,0.4966994898555152,0.49484729775112424
0.73,0.9999925473751335,0.006941478174888993,0.015482740029656158,10.246153514871395,0.4965255346001223,0.4943609295855692
0.74,0.9999922846140625,0.007278832979864536,0.016563557115071292,10.374203623847219,0.496356725817099,0.4938330048698425
0.75,0.999992009007724,0.007597965646230498,0.017711668778590508,10.49731624690886,0.49619702168074675,0.49326043560377497
0.76,0.9999917202797395,0.007891050498497865,0.0189296979234769,10.615339647473041,0.49605033489062084,0.4926407121213865
0.77,0.9999914182265424,0.008150675601256208,0.020219518933095246,10.728128305927394,0.49592037131264305,0.49197200325764123
0.78,0.9999911027172097,0.008370147756385393,0.02158222717418611,10.83554311295245,0.4958104774804121,0.4912532236712006
0.79,0.999990773689823,0.00854376101961657,0.023018137157444107,10.937451698918277,0.49572350633510326,0.4904840668220304
0.8,0.9999904311443013,0.008667010419553367,0.024526806479758884,11.033728947193124,0.495661710362374,0.4896650032150246
0.81,0.9999900751323402,0.008736734243132704,0.02610708373001832,11.124257697493652,0.49562667044460373,0.4887972445772799
0.8200000000000001,0.9999897057457456,0.008751171417128834,0.027757179318614635,11.208929598968897,0.49561926716430843,0.48788267590752016
0.8300000000000001,0.9999893231048747,0.00870992526146025,0.029474758103956993,11.287646032239351,0.4956396989217072,0.4869237590087206
0.84,0.9999889273489794,0.008613831088944202,0.03125705144393986,11.360318994629953,0.4956875481300176,0.485923413208247
0.85,0.9999885186299702,0.008464732391841812,0.03310098398705025,11.426871839321267,0.4957618931190642,0.48488488129551355
0.86,0.9999880971104793,0.008265178062345502,0.03500330760303409,11.487239778022404,0.4958614595240669,0.483811590889817
0.87,0.9999876629663051,0.008018060448930608,0.03696073207150368,11.541370093660177,0.49598480125868727,0.4827070230043331
0.88,0.9999872163924729,0.007726220205209633,0.03897004032064548,11.58922205589384,0.49613049809363163,0.4815746000143506
0.89,0.9999867576114729,0.007392048070172852,0.041028175836990755,11.630766577388457,0.49629735477065,0.4804176042163475
0.9,0.9999862868818781,0.007017115352678627,0.04313229174191397,11.665985682753059,0.4964845857645997,0.47923913556097864
0.91,0.9999858045055513,0.00660186368757143,0.04527975491646534,11.694871878046293,0.49669197040898994,0.47804211312875977
0.92,0.9999853108320331,0.006145380618350738,0.04746810397521692,11.717427504687759,0.49691996510684117,0.4768293199467441
0.93,0.9999848062593377,0.005645281085604248,0.049694966005983554,11.733664140472381,0.49716976258686674,0.4756034854859287
0.9400000000000001,0.9999842912311276,0.005097706559979376,0.051957942779992,11.74360207920094,0.4974432923355741,0.4743673953971567
0.9500000000000001,0.9999837662309178,0.004497444122474659,0.05425448159234029,11.747269888243455,0.49774316105422156,0.47312401445994645
0.96,0.9999832317744286,0.003838158110074208,0.05658174823779699,11.744704018678018,0.49807253683217717,0.47187660688230715
0.97,0.9999826884013798,0.0031127178491603402,0.05893651946332308,11.735948431296329,0.49843498527610974,0.47062883827888224
0.98,0.9999821366678983,0.0023135972518747994,0.061315109614475616,11.72105420542271,0.49883426970801176,0.4693848458354973
0.99,0.9999815771403359,0.0014333162807117494,0.06371334157704425,11.700079113540935,0.49927413042981206,0.4681492670090678
1.0,0.9999810103908213,0.00046489095719010054,0.06612656628770336,11.673087167250154,0.4997580597168156,0.46692722205155884
1.01,0.9999804369943834,-0.0005977420272657574,0.06854972897529933,11.640148161713475,0.5002890895108246,0.465724250996291
1.02,0.9999798575271548,-0.001759357885666002,0.07097747479398313,11.601337259836377,0.5008696077064104,0.4645462108025522
1.03,0.9999792725650023,-0.0030231605190929045,0.07340428233230292,11.55673465971504,0.5015012165420476,0.4633991425112894
1.04,0.9999786826820202,-0.004390603549015437,0.07582461105483743,11.50642537871656,0.5021846431155178,0.46228912108335485
1.05,0.9999780884485425,-0.0058613270270044815,0.07823304816300919,11.450499167649948,0.5029197077377735,0.461222101848638
1.06,0.9999774904286651,-0.007433211775454696,0.08062444147119285,11.38905054412625,0.5037053511020599,0.46020377718268524
1.07,0.9999768891775718,-0.009102543834201393,0.08299400729901801,11.322178911594754,0.5045397165058866,0.45923945532783955
1.08,0.9999762852391816,-0.010864272877738113,0.08533740559442854,11.249988715133085,0.5054202790584599,0.4583339705056015
1.09,0.9999756791446903,-0.012712341511339653,0.08765077803668292,11.172589580203923,0.506344010328015,0.4574916300182639
1.1,0.9999750714124971,-0.014640057657932026,0.08993074831185585,11.090096386819205,0.5073075645352145,0.4567162003204702
1.11,0.9999744625497893,-0.01664048016684988,0.0921743868110857,11.002629246736575,0.5083074713583196,0.4560109304340936
1.12,0.9999738530557826,-0.018706788379559414,0.09437914450320875,10.910313371413498,0.509340320717671,0.45537860789836027
1.1300000000000001,0.9999732434263393,-0.020832609461278795,0.09654276260996286,10.813278838703262,0.510402926443809,0.454821639926919
1.1400000000000001,0.9999726341594977,-0.02301228239483044,0.0986631659608981,10.711660282439016,0.511492458277164,0.45434215073511264
1.1500000000000001,0.9999720257613436,-0.02524104400757371,0.1007383485531719,10.605596538312184,0.5126065348844586,0.45394208517393864
1.16,0.9999714187516864,-0.0275151295548291,0.10276625991913686,10.495230280915168,0.5137432741532577,0.4536233088593059
1.17,0.9999708136691252,-0.029831787510431862,0.10474470043745329,10.380707681427314,0.5149013005897786,0.4533876958501444
1.18,0.999970211075277,-0.032189214695284796,0.10667123273803036,10.26217810544866,0.5160797128852809,0.45323719648649186
1.19,0.9999696115581254,-0.034586423222720375,0.10854311489154345,10.139793858776665,0.5172780173904229,0.4531738800837566
1.2,0.9999690157346206,-0.03702305463592631,0.11035725921985298,10.01370997814479,0.5184960351852734,0.45319994959266646
1.21,0.9999684242527491,-0.03949915891017164,0.11211021843975522,9.884084056002473,0.5197337915814604,0.453317727856101
1.22,0.9999678377933192,-0.042014956701891926,0.11379819862959453,9.751076084167543,0.5209913972476056,0.45352961750041654
1.23,0.9999672570716633,-0.04457060249018885,0.11541709638730877,9.614848300454694,0.5222689297809261,0.45383803858234495
1.24,0.9999666828393579,-0.047165964314346276,0.11696255573548928,9.475565024251436,0.5235663235768521,0.45424534970145036
1.25,0.9999661158859432,-0.049800432966811525,0.11843003900462132,9.333392470198024,0.5248832744263774,0.4547537592648838
1.26,0.9999655570405124,-0.0524727700873624,0.11981490521642593,9.18849853240157,0.5262191635639374,0.4553652339045189
1.27,0.9999650071729406,-0.05518100095296641,0.12111248944756367,9.041052534104237,0.5275730040629535,0.45608141071597663
1.28,0.9999644671944784,-0.05792235417575753,0.1223181772505248,8.891224939062072,0.528943410685118,0.4569035190999485
1.29,0.9999639380574138,-0.060693247269489325,0.12342746933851485,8.739187021198706,0.5303285926634516,0.4578323166765814
1.3,0.9999634207535142,-0.06348931432342192,0.1244360332426544,8.585110488856571,0.531726367538468,0.45886804218413013
1.31,0.9999629163110184,-0.06630546996344949,0.12533974033015782,8.429167059813206,0.533134193137234,0.46001038664385246
1.32,0.9999624257899719,-0.06913600244320317,0.1261346882366693,8.271527983750177,0.5345492141165875,0.4612584825415214
1.33,0.9999619502757681,-0.07197468808449325,0.1268172102440977,8.112363510447786,0.5359683191801307,0.4626109094776561
1.34,0.9999614908707946,-0.07481491930923445,0.12738387429999787,7.951842304744699,0.5373882050900145,0.46406571376538047
1.35,0.9999610486841191,-0.07764983906106049,0.12783147515226853,7.79013081309002,0.5388054438725898,0.4656204388496935
1.36,0.9999606248191929,-0.08047247536247204,0.12815702344441493,7.627392590959151,0.5402165500908325,0.46727216318141473
1.37,0.9999602203595713,-0.08327587093955635,0.1283577356096467,7.4637876050260346,0.5416180456495638,0.4690175422613155
1.3800000000000001,0.9999598363527091,-0.08605320412316891,0.1284310280787585,7.299471528295469,0.543006520237939,0.47085285190668
1.3900000000000001,0.9999594737919284,-0.08879789847365055,0.12837451875852465,7.134595049985879,0.5443786861327895,0.47277403030193776
1.4000000000000001,0.9999591335967394,-0.09150371967456505,0.12818603803041723,6.9693032245219335,0.5457314266356522,0.474776716994226
1.41,0.999958816591764,-0.09416485913165207,0.1278636507428944,6.8037348853906625,0.547061837861708,0.47685628760956855
1.42,0.9999585234846329,-0.09677600436224948,0.1274056898881783,6.638022149794933,0.5483672639234412,0.47900788363699154
1.43,0.9999582548433095,-0.09933239666500171,0.12681080191127897,6.472290039048097,0.5496453257541556,0.4812264371160128
1.44,0.9999580110734212,-0.10182987674232796,0.12607800292094046,6.3066562375821205,0.5508939439078746,0.48350669044575234
1.45,0.99995779239628,-0.1042649189502255,0.12520674446891705,6.141231010384534,0.5521113556732528,0.48584321180601786
1.46,0.9999575988283518,-0.10663465472392208,0.1241969870335674,5.976117294721647,0.5532961267761369,0.48823040684928015
1.47,0.9999574301630239,-0.10893688553047703,0.12304927887762918,5.811410977213796,0.5544471578467505,0.4906625274030935
1.48,0.9999572859555546,-0.11117008548569962,0.12176483753793685,5.647201361757965,0.5555636857206271,0.4931336779349721
1.49,0.9999571655120918,-0.11333339359144373,0.12034563083877589,5.483571827512002,0.5566452795517678,0.4956378204963111
1.5,0.9999570678836356,-0.11542659543958017,0.11879445399772703,5.320600669260121,0.5576918316616079,0.4981687787967862
1.51,0.9999569918657335,-0.11745009421805996,0.11711499911737941,5.158362105127019,0.5587035430418967,0.5007202419795389
1.52,0.9999569360045968,-0.11940487095720304,0.11531191313990052,4.99692742902176,0.5596809034808999,0.5032857685789895
1.53,0.9999568986101526,-0.12129243417243951,0.11339084020324541,4.8363662776777625,0.560624666391296,0.5058587910501178
1.54,0.9999568777763524,-0.12311475938281602,0.11135844430323595,4.676747975088554,0.5615358185795842,0.5084326211580159
1.55,0.9999568714088004,-0.12487421939120036,0.10922240826504932,4.518142910955918,0.5624155454000004,0.5110004564024319
1.56,0.9999568772594923,-0.12657350667149514,0.10699140529352733,4.360623904935,0.5632651919654937,0.5135553875137605
1.57,0.9999568929681297,-0.1282155496824549,0.10467503983653112,4.204267505441562,0.5640862213252923,0.5160904068832947
1.58,0.9999569161091573,-0.12980342537473577,0.10228375518798333,4.049155170998894,0.5648801707419465,0.5185984175716094
1.59,0.9999569442433371,-0.1313402705341013,0.09982870619834,3.89537428387445,0.5656486073887192,0.521072242269026
